4.00010 1733.00000000
4.03538 1613.00000000
4.07066 1614.00000000
4.10594 1671.00000000
4.14122 1666.00000000
4.17650 1633.00000000
4.21178 1599.00000000
4.24706 1517.00000000
4.28234 1568.00000000
4.31762 1543.00000000
4.35290 1626.00000000
4.38818 1608.00000000
4.42346 1577.00000000
4.45874 1568.00000000
4.49402 1504.00000000
4.52930 1525.00000000
4.56458 1536.00000000
4.59986 1467.00000000
4.63514 1526.00000000
4.67042 1508.00000000
4.70570 1516.00000000
4.74098 1508.00000000
4.77626 1551.00000000
4.81154 1428.00000000
4.84682 1488.00000000
4.88210 1497.00000000
4.91738 1388.00000000
4.95266 1425.00000000
4.98794 1437.00000000
5.02322 1442.00000000
5.05850 1404.00000000
5.09378 1386.00000000
5.12906 1407.00000000
5.16434 1316.00000000
5.19962 1299.00000000
5.23490 1319.00000000
5.27018 1299.00000000
5.30546 1315.00000000
5.34074 1343.00000000
5.37602 1284.00000000
5.41130 1230.00000000
5.44658 1256.00000000
5.48186 1189.00000000
5.51714 1221.00000000
5.55242 1249.00000000
5.58770 1200.00000000
5.62298 1207.00000000
5.65826 1224.00000000
5.69354 1160.00000000
5.72882 1155.00000000
5.76410 1124.00000000
5.79938 1135.00000000
5.83466 1100.00000000
5.86994 1121.00000000
5.90522 1067.00000000
5.94050 1053.00000000
5.97578 1013.00000000
6.01106 1011.00000000
6.04634 1027.00000000
6.08162 953.00000000
6.11690 945.00000000
6.15218 927.00000000
6.18746 952.00000000
6.22274 968.00000000
6.25802 935.00000000
6.29330 855.00000000
6.32858 902.00000000
6.36386 843.00000000
6.39914 881.00000000
6.43442 870.00000000
6.46970 823.00000000
6.50498 817.00000000
6.54026 784.00000000
6.57554 807.00000000
6.61082 773.00000000
6.64610 769.00000000
6.68138 745.00000000
6.71666 733.00000000
6.75194 753.00000000
6.78722 763.00000000
6.82250 696.00000000
6.85778 725.00000000
6.89306 647.00000000
6.92834 666.00000000
6.96362 640.00000000
6.99890 653.00000000
7.03418 672.00000000
7.06946 653.00000000
7.10474 588.00000000
7.14002 621.00000000
7.17530 619.00000000
7.21058 608.00000000
7.24586 623.00000000
7.28114 574.00000000
7.31642 578.00000000
7.35170 544.00000000
7.38698 558.00000000
7.42226 529.00000000
7.45754 552.00000000
7.49282 600.00000000
7.52810 531.00000000
7.56338 487.00000000
7.59866 525.00000000
7.63394 535.00000000
7.66922 522.00000000
7.70450 484.00000000
7.73978 518.00000000
7.77506 517.00000000
7.81034 515.00000000
7.84562 528.00000000
7.88090 503.00000000
7.91618 494.00000000
7.95146 491.00000000
7.98674 469.00000000
8.02202 517.00000000
8.05730 549.00000000
8.09258 503.00000000
8.12786 478.00000000
8.16314 481.00000000
8.19842 502.00000000
8.23370 496.00000000
8.26898 510.00000000
8.30426 530.00000000
8.33954 487.00000000
8.37482 473.00000000
8.41010 492.00000000
8.44538 446.00000000
8.48066 482.00000000
8.51594 477.00000000
8.55122 502.00000000
8.58650 496.00000000
8.62178 464.00000000
8.65706 518.00000000
8.69234 464.00000000
8.72762 523.00000000
8.76290 552.00000000
8.79818 600.00000000
8.83346 661.00000000
8.86874 901.00000000
8.90402 1403.00000000
8.93930 1548.00000000
8.97458 804.00000000
9.00986 594.00000000
9.04514 532.00000000
9.08042 506.00000000
9.11570 503.00000000
9.15098 505.00000000
9.18626 481.00000000
9.22154 481.00000000
9.25682 513.00000000
9.29210 458.00000000
9.32738 469.00000000
9.36266 490.00000000
9.39794 500.00000000
9.43322 480.00000000
9.46850 457.00000000
9.50378 441.00000000
9.53906 481.00000000
9.57434 429.00000000
9.60962 454.00000000
9.64490 483.00000000
9.68018 449.00000000
9.71546 470.00000000
9.75074 489.00000000
9.78602 397.00000000
9.82130 471.00000000
9.85658 441.00000000
9.89186 448.00000000
9.92714 462.00000000
9.96242 483.00000000
9.99770 471.00000000
10.03298 463.00000000
10.06826 498.00000000
10.10354 474.00000000
10.13882 456.00000000
10.17410 446.00000000
10.20938 474.00000000
10.24466 465.00000000
10.27994 434.00000000
10.31522 412.00000000
10.35050 452.00000000
10.38578 463.00000000
10.42106 427.00000000
10.45634 456.00000000
10.49162 454.00000000
10.52690 459.00000000
10.56218 424.00000000
10.59746 482.00000000
10.63274 475.00000000
10.66802 457.00000000
10.70330 465.00000000
10.73858 497.00000000
10.77386 432.00000000
10.80914 455.00000000
10.84442 467.00000000
10.87970 488.00000000
10.91498 468.00000000
10.95026 457.00000000
10.98554 447.00000000
11.02082 503.00000000
11.05610 479.00000000
11.09138 491.00000000
11.12666 469.00000000
11.16194 469.00000000
11.19722 479.00000000
11.23250 458.00000000
11.26778 476.00000000
11.30306 494.00000000
11.33834 475.00000000
11.37362 516.00000000
11.40890 506.00000000
11.44418 501.00000000
11.47946 493.00000000
11.51474 500.00000000
11.55002 475.00000000
11.58530 454.00000000
11.62058 452.00000000
11.65586 476.00000000
11.69114 463.00000000
11.72642 465.00000000
11.76170 504.00000000
11.79698 485.00000000
11.83226 466.00000000
11.86754 493.00000000
11.90282 472.00000000
11.93810 451.00000000
11.97338 510.00000000
12.00866 475.00000000
12.04394 476.00000000
12.07922 476.00000000
12.11450 507.00000000
12.14978 509.00000000
12.18506 489.00000000
12.22034 482.00000000
12.25562 484.00000000
12.29090 497.00000000
12.32618 456.00000000
12.36146 462.00000000
12.39674 472.00000000
12.43202 483.00000000
12.46730 467.00000000
12.50258 479.00000000
12.53786 486.00000000
12.57314 525.00000000
12.60842 475.00000000
12.64370 458.00000000
12.67898 478.00000000
12.71426 463.00000000
12.74954 514.00000000
12.78482 482.00000000
12.82010 490.00000000
12.85538 487.00000000
12.89066 486.00000000
12.92594 524.00000000
12.96122 502.00000000
12.99650 471.00000000
13.03178 440.00000000
13.06706 489.00000000
13.10234 464.00000000
13.13762 492.00000000
13.17290 489.00000000
13.20818 457.00000000
13.24346 471.00000000
13.27874 449.00000000
13.31402 482.00000000
13.34930 490.00000000
13.38458 455.00000000
13.41986 499.00000000
13.45514 474.00000000
13.49042 460.00000000
13.52570 453.00000000
13.56098 452.00000000
13.59626 440.00000000
13.63154 440.00000000
13.66682 497.00000000
13.70210 482.00000000
13.73738 465.00000000
13.77266 505.00000000
13.80794 459.00000000
13.84322 480.00000000
13.87850 455.00000000
13.91378 454.00000000
13.94906 403.00000000
13.98434 465.00000000
14.01962 400.00000000
14.05490 484.00000000
14.09018 444.00000000
14.12546 423.00000000
14.16074 432.00000000
14.19602 430.00000000
14.23130 413.00000000
14.26658 429.00000000
14.30186 445.00000000
14.33714 446.00000000
14.37242 428.00000000
14.40770 395.00000000
14.44298 439.00000000
14.47826 441.00000000
14.51354 413.00000000
14.54882 414.00000000
14.58410 390.00000000
14.61938 432.00000000
14.65466 392.00000000
14.68994 382.00000000
14.72522 390.00000000
14.76050 391.00000000
14.79578 431.00000000
14.83106 418.00000000
14.86634 414.00000000
14.90162 406.00000000
14.93690 383.00000000
14.97218 422.00000000
15.00746 365.00000000
15.04274 372.00000000
15.07802 401.00000000
15.11330 377.00000000
15.14858 372.00000000
15.18386 354.00000000
15.21914 371.00000000
15.25442 398.00000000
15.28970 344.00000000
15.32498 397.00000000
15.36026 360.00000000
15.39554 371.00000000
15.43082 404.00000000
15.46610 371.00000000
15.50138 372.00000000
15.53666 382.00000000
15.57194 380.00000000
15.60722 372.00000000
15.64250 352.00000000
15.67778 396.00000000
15.71306 371.00000000
15.74834 386.00000000
15.78362 357.00000000
15.81890 350.00000000
15.85418 346.00000000
15.88946 368.00000000
15.92474 360.00000000
15.96002 342.00000000
15.99530 341.00000000
16.03058 315.00000000
16.06586 305.00000000
16.10114 331.00000000
16.13642 364.00000000
16.17170 325.00000000
16.20698 359.00000000
16.24226 327.00000000
16.27754 324.00000000
16.31282 334.00000000
16.34810 327.00000000
16.38338 360.00000000
16.41866 340.00000000
16.45394 317.00000000
16.48922 313.00000000
16.52450 300.00000000
16.55978 321.00000000
16.59506 334.00000000
16.63034 325.00000000
16.66562 275.00000000
16.70090 340.00000000
16.73618 292.00000000
16.77146 358.00000000
16.80674 324.00000000
16.84202 302.00000000
16.87730 297.00000000
16.91258 318.00000000
16.94786 305.00000000
16.98314 343.00000000
17.01842 315.00000000
17.05370 310.00000000
17.08898 331.00000000
17.12426 324.00000000
17.15954 286.00000000
17.19482 294.00000000
17.23010 318.00000000
17.26538 312.00000000
17.30066 283.00000000
17.33594 322.00000000
17.37122 285.00000000
17.40650 295.00000000
17.44178 305.00000000
17.47706 273.00000000
17.51234 317.00000000
17.54762 301.00000000
17.58290 301.00000000
17.61818 324.00000000
17.65346 302.00000000
17.68874 290.00000000
17.72402 312.00000000
17.75930 356.00000000
17.79458 358.00000000
17.82986 324.00000000
17.86514 284.00000000
17.90042 291.00000000
17.93570 293.00000000
17.97098 312.00000000
18.00626 282.00000000
18.04154 292.00000000
18.07682 276.00000000
18.11210 291.00000000
18.14738 310.00000000
18.18266 281.00000000
18.21794 281.00000000
18.25322 287.00000000
18.28850 306.00000000
18.32378 305.00000000
18.35906 282.00000000
18.39434 270.00000000
18.42962 298.00000000
18.46490 274.00000000
18.50018 298.00000000
18.53546 301.00000000
18.57074 297.00000000
18.60602 266.00000000
18.64130 294.00000000
18.67658 270.00000000
18.71186 327.00000000
18.74714 289.00000000
18.78242 267.00000000
18.81770 297.00000000
18.85298 264.00000000
18.88826 305.00000000
18.92354 286.00000000
18.95882 258.00000000
18.99410 276.00000000
19.02938 243.00000000
19.06466 246.00000000
19.09994 267.00000000
19.13522 275.00000000
19.17050 293.00000000
19.20578 273.00000000
19.24106 267.00000000
19.27634 301.00000000
19.31162 303.00000000
19.34690 288.00000000
19.38218 275.00000000
19.41746 276.00000000
19.45274 276.00000000
19.48802 252.00000000
19.52330 274.00000000
19.55858 273.00000000
19.59386 279.00000000
19.62914 273.00000000
19.66442 266.00000000
19.69970 258.00000000
19.73498 275.00000000
19.77026 286.00000000
19.80554 304.00000000
19.84082 275.00000000
19.87610 268.00000000
19.91138 290.00000000
19.94666 254.00000000
19.98194 259.00000000
20.01722 322.00000000
20.05250 306.00000000
20.08778 285.00000000
20.12306 313.00000000
20.15834 274.00000000
20.19362 267.00000000
20.22890 315.00000000
20.26418 291.00000000
20.29946 276.00000000
20.33474 315.00000000
20.37002 381.00000000
20.40530 409.00000000
20.44058 370.00000000
20.47586 297.00000000
20.51114 281.00000000
20.54642 255.00000000
20.58170 270.00000000
20.61698 255.00000000
20.65226 265.00000000
20.68754 296.00000000
20.72282 244.00000000
20.75810 257.00000000
20.79338 278.00000000
20.82866 278.00000000
20.86394 282.00000000
20.89922 271.00000000
20.93450 253.00000000
20.96978 261.00000000
21.00506 309.00000000
21.04034 266.00000000
21.07562 255.00000000
21.11090 250.00000000
21.14618 263.00000000
21.18146 249.00000000
21.21674 295.00000000
21.25202 266.00000000
21.28730 282.00000000
21.32258 264.00000000
21.35786 233.00000000
21.39314 249.00000000
21.42842 255.00000000
21.46370 261.00000000
21.49898 261.00000000
21.53426 253.00000000
21.56954 248.00000000
21.60482 301.00000000
21.64010 278.00000000
21.67538 279.00000000
21.71066 256.00000000
21.74594 219.00000000
21.78122 272.00000000
21.81650 262.00000000
21.85178 234.00000000
21.88706 244.00000000
21.92234 277.00000000
21.95762 273.00000000
21.99290 285.00000000
22.02818 301.00000000
22.06346 339.00000000
22.09874 381.00000000
22.13402 464.00000000
22.16930 592.00000000
22.20458 974.00000000
22.23986 1524.00000000
22.27514 1325.00000000
22.31042 954.00000000
22.34570 564.00000000
22.38098 352.00000000
22.41626 290.00000000
22.45154 280.00000000
22.48682 277.00000000
22.52210 274.00000000
22.55738 254.00000000
22.59266 252.00000000
22.62794 303.00000000
22.66322 254.00000000
22.69850 257.00000000
22.73378 301.00000000
22.76906 282.00000000
22.80434 248.00000000
22.83962 276.00000000
22.87490 282.00000000
22.91018 273.00000000
22.94546 285.00000000
22.98074 273.00000000
23.01602 254.00000000
23.05130 270.00000000
23.08658 275.00000000
23.12186 272.00000000
23.15714 269.00000000
23.19242 287.00000000
23.22770 265.00000000
23.26298 322.00000000
23.29826 351.00000000
23.33354 406.00000000
23.36882 608.00000000
23.40410 790.00000000
23.43938 1267.00000000
23.47466 2157.00000000
23.50994 2571.00000000
23.54522 1921.00000000
23.58050 1187.00000000
23.61578 612.00000000
23.65106 443.00000000
23.68634 384.00000000
23.72162 301.00000000
23.75690 296.00000000
23.79218 325.00000000
23.82746 295.00000000
23.86274 254.00000000
23.89802 305.00000000
23.93330 278.00000000
23.96858 237.00000000
24.00386 251.00000000
24.03914 236.00000000
24.07442 231.00000000
24.10970 244.00000000
24.14498 254.00000000
24.18026 223.00000000
24.21554 247.00000000
24.25082 253.00000000
24.28610 261.00000000
24.32138 221.00000000
24.35666 236.00000000
24.39194 213.00000000
24.42722 252.00000000
24.46250 268.00000000
24.49778 273.00000000
24.53306 250.00000000
24.56834 207.00000000
24.60362 261.00000000
24.63890 238.00000000
24.67418 244.00000000
24.70946 244.00000000
24.74474 227.00000000
24.78002 238.00000000
24.81530 253.00000000
24.85058 199.00000000
24.88586 223.00000000
24.92114 220.00000000
24.95642 251.00000000
24.99170 227.00000000
25.02698 248.00000000
25.06226 262.00000000
25.09754 229.00000000
25.13282 253.00000000
25.16810 202.00000000
25.20338 248.00000000
25.23866 243.00000000
25.27394 256.00000000
25.30922 233.00000000
25.34450 242.00000000
25.37978 264.00000000
25.41506 250.00000000
25.45034 230.00000000
25.48562 242.00000000
25.52090 222.00000000
25.55618 247.00000000
25.59146 268.00000000
25.62674 236.00000000
25.66202 243.00000000
25.69730 271.00000000
25.73258 224.00000000
25.76786 242.00000000
25.80314 262.00000000
25.83842 254.00000000
25.87370 229.00000000
25.90898 233.00000000
25.94426 246.00000000
25.97954 284.00000000
26.01482 273.00000000
26.05010 264.00000000
26.08538 248.00000000
26.12066 257.00000000
26.15594 276.00000000
26.19122 268.00000000
26.22650 256.00000000
26.26178 280.00000000
26.29706 249.00000000
26.33234 243.00000000
26.36762 275.00000000
26.40290 250.00000000
26.43818 279.00000000
26.47346 248.00000000
26.50874 268.00000000
26.54402 284.00000000
26.57930 281.00000000
26.61458 358.00000000
26.64986 369.00000000
26.68514 436.00000000
26.72042 586.00000000
26.75570 807.00000000
26.79098 1213.00000000
26.82626 2348.00000000
26.86154 3210.00000000
26.89682 2284.00000000
26.93210 1740.00000000
26.96738 778.00000000
27.00266 488.00000000
27.03794 383.00000000
27.07322 343.00000000
27.10850 302.00000000
27.14378 287.00000000
27.17906 268.00000000
27.21434 303.00000000
27.24962 275.00000000
27.28490 254.00000000
27.32018 276.00000000
27.35546 244.00000000
27.39074 272.00000000
27.42602 266.00000000
27.46130 290.00000000
27.49658 284.00000000
27.53186 261.00000000
27.56714 304.00000000
27.60242 322.00000000
27.63770 295.00000000
27.67298 294.00000000
27.70826 317.00000000
27.74354 328.00000000
27.77882 305.00000000
27.81410 302.00000000
27.84938 284.00000000
27.88466 257.00000000
27.91994 312.00000000
27.95522 287.00000000
27.99050 350.00000000
28.02578 405.00000000
28.06106 597.00000000
28.09634 907.00000000
28.13162 1248.00000000
28.16690 2182.00000000
28.20218 2293.00000000
28.23746 1649.00000000
28.27274 1303.00000000
28.30802 686.00000000
28.34330 443.00000000
28.37858 413.00000000
28.41386 327.00000000
28.44914 326.00000000
28.48442 328.00000000
28.51970 411.00000000
28.55498 422.00000000
28.59026 376.00000000
28.62554 341.00000000
28.66082 283.00000000
28.69610 260.00000000
28.73138 302.00000000
28.76666 251.00000000
28.80194 214.00000000
28.83722 254.00000000
28.87250 227.00000000
28.90778 224.00000000
28.94306 256.00000000
28.97834 237.00000000
29.01362 238.00000000
29.04890 228.00000000
29.08418 212.00000000
29.11946 234.00000000
29.15474 244.00000000
29.19002 252.00000000
29.22530 253.00000000
29.26058 288.00000000
29.29586 257.00000000
29.33114 269.00000000
29.36642 283.00000000
29.40170 314.00000000
29.43698 309.00000000
29.47226 323.00000000
29.50754 406.00000000
29.54282 464.00000000
29.57810 407.00000000
29.61338 346.00000000
29.64866 308.00000000
29.68394 295.00000000
29.71922 264.00000000
29.75450 246.00000000
29.78978 267.00000000
29.82506 262.00000000
29.86034 218.00000000
29.89562 262.00000000
29.93090 263.00000000
29.96618 269.00000000
30.00146 283.00000000
30.03674 241.00000000
30.07202 241.00000000
30.10730 221.00000000
30.14258 236.00000000
30.17786 264.00000000
30.21314 274.00000000
30.24842 262.00000000
30.28370 264.00000000
30.31898 248.00000000
30.35426 246.00000000
30.38954 258.00000000
30.42482 244.00000000
30.46010 255.00000000
30.49538 259.00000000
30.53066 246.00000000
30.56594 253.00000000
30.60122 249.00000000
30.63650 280.00000000
30.67178 272.00000000
30.70706 247.00000000
30.74234 262.00000000
30.77762 270.00000000
30.81290 292.00000000
30.84818 279.00000000
30.88346 342.00000000
30.91874 429.00000000
30.95402 511.00000000
30.98930 911.00000000
31.02458 1348.00000000
31.05986 1126.00000000
31.09514 1014.00000000
31.13042 840.00000000
31.16570 551.00000000
31.20098 695.00000000
31.23626 795.00000000
31.27154 689.00000000
31.30682 612.00000000
31.34210 543.00000000
31.37738 397.00000000
31.41266 376.00000000
31.44794 436.00000000
31.48322 531.00000000
31.51850 842.00000000
31.55378 1015.00000000
31.58906 751.00000000
31.62434 704.00000000
31.65962 533.00000000
31.69490 383.00000000
31.73018 307.00000000
31.76546 256.00000000
31.80074 289.00000000
31.83602 283.00000000
31.87130 274.00000000
31.90658 259.00000000
31.94186 278.00000000
31.97714 257.00000000
32.01242 308.00000000
32.04770 246.00000000
32.08298 280.00000000
32.11826 300.00000000
32.15354 312.00000000
32.18882 310.00000000
32.22410 303.00000000
32.25938 281.00000000
32.29466 269.00000000
32.32994 267.00000000
32.36522 285.00000000
32.40050 291.00000000
32.43578 260.00000000
32.47106 304.00000000
32.50634 305.00000000
32.54162 275.00000000
32.57690 291.00000000
32.61218 293.00000000
32.64746 275.00000000
32.68274 263.00000000
32.71802 300.00000000
32.75330 303.00000000
32.78858 277.00000000
32.82386 311.00000000
32.85914 309.00000000
32.89442 353.00000000
32.92970 358.00000000
32.96498 378.00000000
33.00026 462.00000000
33.03554 540.00000000
33.07082 765.00000000
33.10610 1055.00000000
33.14138 1619.00000000
33.17666 2556.00000000
33.21194 5244.00000000
33.24722 7551.00000000
33.28250 5480.00000000
33.31778 4557.00000000
33.35306 3415.00000000
33.38834 1657.00000000
33.42362 995.00000000
33.45890 705.00000000
33.49418 555.00000000
33.52946 550.00000000
33.56474 520.00000000
33.60002 426.00000000
33.63530 408.00000000
33.67058 352.00000000
33.70586 306.00000000
33.74114 317.00000000
33.77642 284.00000000
33.81170 296.00000000
33.84698 282.00000000
33.88226 285.00000000
33.91754 312.00000000
33.95282 279.00000000
33.98810 275.00000000
34.02338 261.00000000
34.05866 274.00000000
34.09394 278.00000000
34.12922 304.00000000
34.16450 238.00000000
34.19978 294.00000000
34.23506 316.00000000
34.27034 297.00000000
34.30562 298.00000000
34.34090 297.00000000
34.37618 242.00000000
34.41146 253.00000000
34.44674 259.00000000
34.48202 297.00000000
34.51730 334.00000000
34.55258 402.00000000
34.58786 463.00000000
34.62314 686.00000000
34.65842 772.00000000
34.69370 639.00000000
34.72898 555.00000000
34.76426 436.00000000
34.79954 329.00000000
34.83482 301.00000000
34.87010 284.00000000
34.90538 282.00000000
34.94066 289.00000000
34.97594 246.00000000
35.01122 324.00000000
35.04650 303.00000000
35.08178 321.00000000
35.11706 276.00000000
35.15234 251.00000000
35.18762 276.00000000
35.22290 271.00000000
35.25818 273.00000000
35.29346 286.00000000
35.32874 286.00000000
35.36402 273.00000000
35.39930 262.00000000
35.43458 274.00000000
35.46986 267.00000000
35.50514 257.00000000
35.54042 273.00000000
35.57570 262.00000000
35.61098 278.00000000
35.64626 286.00000000
35.68154 317.00000000
35.71682 348.00000000
35.75210 464.00000000
35.78738 556.00000000
35.82266 475.00000000
35.85794 447.00000000
35.89322 609.00000000
35.92850 537.00000000
35.96378 416.00000000
35.99906 405.00000000
36.03434 370.00000000
36.06962 284.00000000
36.10490 300.00000000
36.14018 239.00000000
36.17546 259.00000000
36.21074 287.00000000
36.24602 263.00000000
36.28130 287.00000000
36.31658 270.00000000
36.35186 321.00000000
36.38714 298.00000000
36.42242 291.00000000
36.45770 281.00000000
36.49298 278.00000000
36.52826 259.00000000
36.56354 288.00000000
36.59882 262.00000000
36.63410 248.00000000
36.66938 241.00000000
36.70466 259.00000000
36.73994 271.00000000
36.77522 306.00000000
36.81050 288.00000000
36.84578 371.00000000
36.88106 403.00000000
36.91634 537.00000000
36.95162 462.00000000
36.98690 424.00000000
37.02218 437.00000000
37.05746 371.00000000
37.09274 362.00000000
37.12802 406.00000000
37.16330 484.00000000
37.19858 701.00000000
37.23386 825.00000000
37.26914 632.00000000
37.30442 599.00000000
37.33970 598.00000000
37.37498 377.00000000
37.41026 291.00000000
37.44554 274.00000000
37.48082 248.00000000
37.51610 242.00000000
37.55138 279.00000000
37.58666 264.00000000
37.62194 272.00000000
37.65722 260.00000000
37.69250 251.00000000
37.72778 240.00000000
37.76306 252.00000000
37.79834 236.00000000
37.83362 282.00000000
37.86890 255.00000000
37.90418 237.00000000
37.93946 272.00000000
37.97474 269.00000000
38.01002 242.00000000
38.04530 234.00000000
38.08058 274.00000000
38.11586 275.00000000
38.15114 236.00000000
38.18642 267.00000000
38.22170 233.00000000
38.25698 277.00000000
38.29226 277.00000000
38.32754 321.00000000
38.36282 318.00000000
38.39810 307.00000000
38.43338 280.00000000
38.46866 297.00000000
38.50394 262.00000000
38.53922 288.00000000
38.57450 331.00000000
38.60978 284.00000000
38.64506 316.00000000
38.68034 294.00000000
38.71562 316.00000000
38.75090 345.00000000
38.78618 358.00000000
38.82146 454.00000000
38.85674 570.00000000
38.89202 808.00000000
38.92730 1541.00000000
38.96258 2093.00000000
38.99786 1361.00000000
39.03314 1207.00000000
39.06842 1340.00000000
39.10370 952.00000000
39.13898 623.00000000
39.17426 486.00000000
39.20954 475.00000000
39.24482 406.00000000
39.28010 380.00000000
39.31538 428.00000000
39.35066 440.00000000
39.38594 470.00000000
39.42122 387.00000000
39.45650 383.00000000
39.49178 388.00000000
39.52706 335.00000000
39.56234 327.00000000
39.59762 325.00000000
39.63290 288.00000000
39.66818 295.00000000
39.70346 313.00000000
39.73874 284.00000000
39.77402 260.00000000
39.80930 307.00000000
39.84458 270.00000000
39.87986 292.00000000
39.91514 266.00000000
39.95042 295.00000000
39.98570 311.00000000
40.02098 289.00000000
40.05626 305.00000000
40.09154 335.00000000
40.12682 374.00000000
40.16210 383.00000000
40.19738 327.00000000
40.23266 374.00000000
40.26794 362.00000000
40.30322 426.00000000
40.33850 464.00000000
40.37378 572.00000000
40.40906 782.00000000
40.44434 914.00000000
40.47962 802.00000000
40.51490 946.00000000
40.55018 1235.00000000
40.58546 1517.00000000
40.62074 2547.00000000
40.65602 2822.00000000
40.69130 2221.00000000
40.72658 2137.00000000
40.76186 1868.00000000
40.79714 1325.00000000
40.83242 994.00000000
40.86770 838.00000000
40.90298 863.00000000
40.93826 942.00000000
40.97354 744.00000000
41.00882 630.00000000
41.04410 635.00000000
41.07938 497.00000000
41.11466 448.00000000
41.14994 417.00000000
41.18522 398.00000000
41.22050 412.00000000
41.25578 503.00000000
41.29106 634.00000000
41.32634 781.00000000
41.36162 730.00000000
41.39690 812.00000000
41.43218 1148.00000000
41.46746 950.00000000
41.50274 786.00000000
41.53802 746.00000000
41.57330 708.00000000
41.60858 510.00000000
41.64386 411.00000000
41.67914 378.00000000
41.71442 363.00000000
41.74970 349.00000000
41.78498 376.00000000
41.82026 319.00000000
41.85554 328.00000000
41.89082 287.00000000
41.92610 322.00000000
41.96138 281.00000000
41.99666 296.00000000
42.03194 337.00000000
42.06722 363.00000000
42.10250 345.00000000
42.13778 421.00000000
42.17306 491.00000000
42.20834 622.00000000
42.24362 937.00000000
42.27890 1206.00000000
42.31418 1861.00000000
42.34946 1475.00000000
42.38474 1077.00000000
42.42002 1175.00000000
42.45530 911.00000000
42.49058 623.00000000
42.52586 527.00000000
42.56114 527.00000000
42.59642 560.00000000
42.63170 627.00000000
42.66698 902.00000000
42.70226 1457.00000000
42.73754 1367.00000000
42.77282 937.00000000
42.80810 977.00000000
42.84338 896.00000000
42.87866 562.00000000
42.91394 407.00000000
42.94922 357.00000000
42.98450 329.00000000
43.01978 302.00000000
43.05506 313.00000000
43.09034 299.00000000
43.12562 305.00000000
43.16090 283.00000000
43.19618 323.00000000
43.23146 285.00000000
43.26674 290.00000000
43.30202 267.00000000
43.33730 298.00000000
43.37258 259.00000000
43.40786 282.00000000
43.44314 254.00000000
43.47842 278.00000000
43.51370 304.00000000
43.54898 291.00000000
43.58426 270.00000000
43.61954 249.00000000
43.65482 293.00000000
43.69010 268.00000000
43.72538 252.00000000
43.76066 238.00000000
43.79594 270.00000000
43.83122 250.00000000
43.86650 260.00000000
43.90178 266.00000000
43.93706 287.00000000
43.97234 267.00000000
44.00762 262.00000000
44.04290 300.00000000
44.07818 292.00000000
44.11346 294.00000000
44.14874 339.00000000
44.18402 350.00000000
44.21930 423.00000000
44.25458 507.00000000
44.28986 574.00000000
44.32514 527.00000000
44.36042 515.00000000
44.39570 675.00000000
44.43098 774.00000000
44.46626 877.00000000
44.50154 1335.00000000
44.53682 1319.00000000
44.57210 990.00000000
44.60738 938.00000000
44.64266 830.00000000
44.67794 664.00000000
44.71322 496.00000000
44.74850 425.00000000
44.78378 364.00000000
44.81906 340.00000000
44.85434 323.00000000
44.88962 318.00000000
44.92490 362.00000000
44.96018 390.00000000
44.99546 436.00000000
45.03074 514.00000000
45.06602 772.00000000
45.10130 1092.00000000
45.13658 1139.00000000
45.17186 931.00000000
45.20714 825.00000000
45.24242 951.00000000
45.27770 755.00000000
45.31298 556.00000000
45.34826 562.00000000
45.38354 502.00000000
45.41882 390.00000000
45.45410 407.00000000
45.48938 347.00000000
45.52466 346.00000000
45.55994 287.00000000
45.59522 303.00000000
45.63050 261.00000000
45.66578 260.00000000
45.70106 272.00000000
45.73634 263.00000000
45.77162 265.00000000
45.80690 286.00000000
45.84218 247.00000000
45.87746 238.00000000
45.91274 237.00000000
45.94802 239.00000000
45.98330 279.00000000
46.01858 266.00000000
46.05386 252.00000000
46.08914 275.00000000
46.12442 246.00000000
46.15970 277.00000000
46.19498 293.00000000
46.23026 307.00000000
46.26554 356.00000000
46.30082 456.00000000
46.33610 551.00000000
46.37138 439.00000000
46.40666 377.00000000
46.44194 407.00000000
46.47722 358.00000000
46.51250 352.00000000
46.54778 280.00000000
46.58306 273.00000000
46.61834 279.00000000
46.65362 258.00000000
46.68890 291.00000000
46.72418 261.00000000
46.75946 209.00000000
46.79474 237.00000000
46.83002 290.00000000
46.86530 224.00000000
46.90058 267.00000000
46.93586 261.00000000
46.97114 253.00000000
47.00642 242.00000000
47.04170 272.00000000
47.07698 219.00000000
47.11226 239.00000000
47.14754 275.00000000
47.18282 258.00000000
47.21810 330.00000000
47.25338 290.00000000
47.28866 319.00000000
47.32394 360.00000000
47.35922 474.00000000
47.39450 713.00000000
47.42978 1037.00000000
47.46506 999.00000000
47.50034 726.00000000
47.53562 694.00000000
47.57090 755.00000000
47.60618 543.00000000
47.64146 388.00000000
47.67674 321.00000000
47.71202 290.00000000
47.74730 314.00000000
47.78258 252.00000000
47.81786 253.00000000
47.85314 267.00000000
47.88842 261.00000000
47.92370 243.00000000
47.95898 256.00000000
47.99426 258.00000000
48.02954 274.00000000
48.06482 246.00000000
48.10010 262.00000000
48.13538 252.00000000
48.17066 244.00000000
48.20594 245.00000000
48.24122 257.00000000
48.27650 223.00000000
48.31178 258.00000000
48.34706 244.00000000
48.38234 221.00000000
48.41762 207.00000000
48.45290 247.00000000
48.48818 236.00000000
48.52346 237.00000000
48.55874 234.00000000
48.59402 225.00000000
48.62930 232.00000000
48.66458 260.00000000
48.69986 241.00000000
48.73514 249.00000000
48.77042 234.00000000
48.80570 224.00000000
48.84098 237.00000000
48.87626 262.00000000
48.91154 241.00000000
48.94682 275.00000000
48.98210 244.00000000
49.01738 259.00000000
49.05266 225.00000000
49.08794 254.00000000
49.12322 280.00000000
49.15850 272.00000000
49.19378 253.00000000
49.22906 257.00000000
49.26434 222.00000000
49.29962 223.00000000
49.33490 231.00000000
49.37018 225.00000000
49.40546 250.00000000
49.44074 248.00000000
49.47602 290.00000000
49.51130 236.00000000
49.54658 245.00000000
49.58186 257.00000000
49.61714 242.00000000
49.65242 262.00000000
49.68770 240.00000000
49.72298 256.00000000
49.75826 306.00000000
49.79354 331.00000000
49.82882 309.00000000
49.86410 282.00000000
49.89938 311.00000000
49.93466 304.00000000
49.96994 278.00000000
50.00522 280.00000000
50.04050 240.00000000
50.07578 247.00000000
50.11106 267.00000000
50.14634 253.00000000
50.18162 255.00000000
50.21690 223.00000000
50.25218 224.00000000
50.28746 240.00000000
50.32274 258.00000000
50.35802 227.00000000
50.39330 257.00000000
50.42858 246.00000000
50.46386 247.00000000
50.49914 266.00000000
50.53442 276.00000000
50.56970 274.00000000
50.60498 281.00000000
50.64026 281.00000000
50.67554 268.00000000
50.71082 301.00000000
50.74610 325.00000000
50.78138 392.00000000
50.81666 344.00000000
50.85194 301.00000000
50.88722 323.00000000
50.92250 340.00000000
50.95778 348.00000000
50.99306 319.00000000
51.02834 298.00000000
51.06362 306.00000000
51.09890 268.00000000
51.13418 246.00000000
51.16946 239.00000000
51.20474 250.00000000
51.24002 241.00000000
51.27530 264.00000000
51.31058 252.00000000
51.34586 235.00000000
51.38114 245.00000000
51.41642 229.00000000
51.45170 256.00000000
51.48698 250.00000000
51.52226 255.00000000
51.55754 260.00000000
51.59282 293.00000000
51.62810 375.00000000
51.66338 446.00000000
51.69866 386.00000000
51.73394 306.00000000
51.76922 333.00000000
51.80450 379.00000000
51.83978 328.00000000
51.87506 297.00000000
51.91034 296.00000000
51.94562 310.00000000
51.98090 342.00000000
52.01618 375.00000000
52.05146 513.00000000
52.08674 609.00000000
52.12202 482.00000000
52.15730 384.00000000
52.19258 433.00000000
52.22786 491.00000000
52.26314 486.00000000
52.29842 423.00000000
52.33370 372.00000000
52.36898 422.00000000
52.40426 401.00000000
52.43954 366.00000000
52.47482 317.00000000
52.51010 336.00000000
52.54538 305.00000000
52.58066 251.00000000
52.61594 272.00000000
52.65122 287.00000000
52.68650 248.00000000
52.72178 239.00000000
52.75706 245.00000000
52.79234 230.00000000
52.82762 237.00000000
52.86290 213.00000000
52.89818 211.00000000
52.93346 223.00000000
52.96874 219.00000000
53.00402 231.00000000
53.03930 231.00000000
53.07458 232.00000000
53.10986 214.00000000
53.14514 241.00000000
53.18042 226.00000000
53.21570 232.00000000
53.25098 269.00000000
53.28626 263.00000000
53.32154 243.00000000
53.35682 247.00000000
53.39210 213.00000000
53.42738 239.00000000
53.46266 264.00000000
53.49794 243.00000000
53.53322 241.00000000
53.56850 262.00000000
53.60378 257.00000000
53.63906 232.00000000
53.67434 232.00000000
53.70962 242.00000000
53.74490 249.00000000
53.78018 237.00000000
53.81546 273.00000000
53.85074 225.00000000
53.88602 246.00000000
53.92130 233.00000000
53.95658 254.00000000
53.99186 258.00000000
54.02714 249.00000000
54.06242 223.00000000
54.09770 253.00000000
54.13298 232.00000000
54.16826 247.00000000
54.20354 218.00000000
54.23882 228.00000000
54.27410 216.00000000
54.30938 245.00000000
54.34466 242.00000000
54.37994 209.00000000
54.41522 231.00000000
54.45050 239.00000000
54.48578 260.00000000
54.52106 233.00000000
54.55634 242.00000000
54.59162 230.00000000
54.62690 259.00000000
54.66218 237.00000000
54.69746 271.00000000
54.73274 273.00000000
54.76802 288.00000000
54.80330 288.00000000
54.83858 269.00000000
54.87386 277.00000000
54.90914 297.00000000
54.94442 268.00000000
54.97970 323.00000000
55.01498 346.00000000
55.05026 360.00000000
55.08554 367.00000000
55.12082 369.00000000
55.15610 382.00000000
55.19138 485.00000000
55.22666 410.00000000
55.26194 369.00000000
55.29722 332.00000000
55.33250 311.00000000
55.36778 292.00000000
55.40306 283.00000000
55.43834 287.00000000
55.47362 277.00000000
55.50890 281.00000000
55.54418 294.00000000
55.57946 355.00000000
55.61474 396.00000000
55.65002 330.00000000
55.68530 304.00000000
55.72058 282.00000000
55.75586 350.00000000
55.79114 369.00000000
55.82642 328.00000000
55.86170 382.00000000
55.89698 327.00000000
55.93226 321.00000000
55.96754 334.00000000
56.00282 376.00000000
56.03810 314.00000000
56.07338 310.00000000
56.10866 327.00000000
56.14394 330.00000000
56.17922 282.00000000
56.21450 258.00000000
56.24978 236.00000000
56.28506 276.00000000
56.32034 250.00000000
56.35562 231.00000000
56.39090 250.00000000
56.42618 230.00000000
56.46146 248.00000000
56.49674 225.00000000
56.53202 245.00000000
56.56730 276.00000000
56.60258 250.00000000
56.63786 230.00000000
56.67314 260.00000000
56.70842 250.00000000
56.74370 235.00000000
56.77898 257.00000000
56.81426 253.00000000
56.84954 232.00000000
56.88482 238.00000000
56.92010 239.00000000
56.95538 225.00000000
56.99066 245.00000000
57.02594 255.00000000
57.06122 253.00000000
57.09650 220.00000000
57.13178 264.00000000
57.16706 262.00000000
57.20234 233.00000000
57.23762 218.00000000
57.27290 252.00000000
57.30818 262.00000000
57.34346 276.00000000
57.37874 235.00000000
57.41402 299.00000000
57.44930 285.00000000
57.48458 290.00000000
57.51986 276.00000000
57.55514 326.00000000
57.59042 390.00000000
57.62570 392.00000000
57.66098 312.00000000
57.69626 292.00000000
57.73154 310.00000000
57.76682 353.00000000
57.80210 306.00000000
57.83738 268.00000000
57.87266 256.00000000
57.90794 270.00000000
57.94322 289.00000000
57.97850 282.00000000
58.01378 274.00000000
58.04906 276.00000000
58.08434 278.00000000
58.11962 267.00000000
58.15490 262.00000000
58.19018 270.00000000
58.22546 296.00000000
58.26074 277.00000000
58.29602 308.00000000
58.33130 303.00000000
58.36658 349.00000000
58.40186 431.00000000
58.43714 445.00000000
58.47242 451.00000000
58.50770 463.00000000
58.54298 489.00000000
58.57826 581.00000000
58.61354 658.00000000
58.64882 521.00000000
58.68410 434.00000000
58.71938 440.00000000
58.75466 448.00000000
58.78994 447.00000000
58.82522 407.00000000
58.86050 403.00000000
58.89578 449.00000000
58.93106 483.00000000
58.96634 489.00000000
59.00162 471.00000000
59.03690 429.00000000
59.07218 363.00000000
59.10746 378.00000000
59.14274 395.00000000
59.17802 330.00000000
59.21330 321.00000000
59.24858 349.00000000
59.28386 388.00000000
59.31914 401.00000000
59.35442 505.00000000
59.38970 523.00000000
59.42498 412.00000000
59.46026 325.00000000
59.49554 337.00000000
59.53082 419.00000000
59.56610 360.00000000
59.60138 279.00000000
59.63666 302.00000000
59.67194 321.00000000
59.70722 275.00000000
59.74250 270.00000000
59.77778 279.00000000
59.81306 266.00000000
59.84834 226.00000000
59.88362 236.00000000
59.91890 281.00000000
59.95418 261.00000000
59.98946 275.00000000
60.02474 257.00000000
