5.36000 595.64000000
5.39000 584.57800000
5.42000 577.88900000
5.45000 581.63000000
5.48000 580.53800000
5.51000 575.49400000
5.54000 583.35800000
5.57000 593.11200000
5.60000 592.80200000
5.63000 598.46100000
5.66000 604.83400000
5.69000 601.80400000
5.72000 598.92400000
5.75000 590.24600000
5.78000 585.95800000
5.81000 584.34400000
5.84000 583.55200000
5.87000 584.34700000
5.90000 585.12300000
5.93000 590.28400000
5.96000 594.13500000
5.99000 592.05100000
6.02000 588.60700000
6.05000 584.77800000
6.08000 584.71500000
6.11000 588.60400000
6.14000 589.03300000
6.17000 594.93500000
6.20000 604.06900000
6.23000 606.82000000
6.26000 604.82600000
6.29000 601.46100000
6.32000 597.75900000
6.35000 598.79000000
6.38000 599.79800000
6.41000 600.28100000
6.44000 603.41300000
6.47000 601.01500000
6.50000 595.11300000
6.53000 593.58400000
6.56000 595.00800000
6.59000 593.03700000
6.62000 595.54100000
6.65000 599.06600000
6.68000 602.93200000
6.71000 598.32100000
6.74000 593.02100000
6.77000 596.81400000
6.80000 596.81400000
6.83000 596.93500000
6.86000 595.32300000
6.89000 593.37700000
6.92000 589.86500000
6.95000 589.51000000
6.98000 590.82300000
7.01000 592.58500000
7.04000 593.58500000
7.07000 594.68190000
7.10000 595.93200000
7.13000 596.36300000
7.16000 595.25100000
7.19000 595.75200000
7.22000 593.21390000
7.25000 594.53900000
7.28000 587.19300000
7.31000 584.84700000
7.34000 580.25600000
7.37000 573.00000000
7.40000 574.92700000
7.43000 584.45400000
7.46000 591.88400000
7.49000 591.71200000
7.52000 595.94400000
7.55000 599.47300000
7.58000 597.44800000
7.61000 599.83200000
7.64000 593.29000000
7.67000 598.27500000
7.70000 598.58700000
7.73000 594.72000000
7.76000 596.02500000
7.79000 592.74700000
7.82000 587.60200000
7.85000 584.61900000
7.88000 589.06600000
7.91000 594.24600000
7.94000 592.98100000
7.97000 588.56900000
8.00000 589.73800000
8.03000 593.29900000
8.06000 592.81900000
8.09000 599.40100000
8.12000 604.05200000
8.15000 606.53400000
8.18000 611.87700000
8.21000 616.10900000
8.24000 617.05200000
8.27000 613.54700000
8.30000 609.80600000
8.33000 606.26800000
8.36000 608.02000000
8.39000 610.41700000
8.42000 611.75200000
8.45000 609.74600000
8.48000 599.94700000
8.51000 597.25900000
8.54000 599.77500000
8.57000 599.98700000
8.60000 599.78900000
8.63000 598.79800000
8.66000 603.43000000
8.69000 607.61200000
8.72000 607.31700000
8.75000 605.83400000
8.78000 607.43050000
8.81000 600.69800000
8.84000 607.26200000
8.87000 604.89900000
8.90000 604.67200000
8.93000 611.14100000
8.96000 615.42000000
8.99000 621.31700000
9.02000 617.69400000
9.05000 606.98800000
9.08000 600.34000000
9.11000 596.83600000
9.14000 593.90600000
9.17000 594.67400000
9.20000 600.91300000
9.23000 597.56130000
9.26000 605.30300000
9.29000 597.26700000
9.32000 597.47500000
9.35000 599.40400000
9.38000 600.91000000
9.41000 599.94810000
9.44000 601.96400000
9.47000 598.25900000
9.50000 596.85900000
9.53000 596.25500000
9.56000 598.57900000
9.59000 602.67900000
9.62000 609.80800000
9.65000 618.81700000
9.68000 626.70500000
9.71000 633.63200000
9.74000 638.14600000
9.77000 637.77200000
9.80000 640.38000000
9.83000 642.11200000
9.86000 647.92600000
9.89000 650.61400000
9.92000 650.99200000
9.95000 652.36000000
9.98000 651.85980000
10.01000 651.03800000
10.04000 649.75500000
10.07000 649.42200000
10.10000 648.26600000
10.13000 645.85000000
10.16000 639.83700000
10.19000 637.20500000
10.22000 630.92800000
10.25000 628.95800000
10.28000 624.52400000
10.31000 621.62600000
10.34000 617.07400000
10.37000 609.78600000
10.40000 605.60500000
10.43000 602.37400000
10.46000 602.86400000
10.49000 600.00900000
10.52000 595.61000000
10.55000 593.18200000
10.58000 590.17100000
10.61000 589.54100000
10.64000 589.34600000
10.67000 587.62800000
10.70000 586.63400000
10.73000 583.13500000
10.76000 581.41900000
10.79000 584.55900000
10.82000 587.16500000
10.85000 585.75800000
10.88000 589.00800000
10.91000 588.74500000
10.94000 584.81800000
10.97000 582.70500000
11.00000 581.60100000
11.03000 580.97600000
11.06000 577.96500000
11.09000 579.85600000
11.12000 585.81400000
11.15000 584.07000000
11.18000 581.02100000
11.21000 585.44700000
11.24000 583.96500000
11.27000 579.75500000
11.30000 576.47500000
11.33000 575.53590000
11.36000 570.84400000
11.39000 574.00900000
11.42000 576.83600000
11.45000 577.80200000
11.48000 575.03300000
11.51000 574.18500000
11.54000 580.35500000
11.57000 584.97000000
11.60000 578.41400000
11.63000 576.31000000
11.66000 575.91900000
11.69000 576.82600000
11.72000 579.89500000
11.75000 579.06900000
11.78000 580.09500000
11.81000 585.93100000
11.84000 586.89700000
11.87000 583.56300000
11.90000 580.28900000
11.93000 580.30800000
11.96000 580.29800000
11.99000 578.40200000
12.02000 579.05100000
12.05000 580.17900000
12.08000 581.58900000
12.11000 588.64300000
12.14000 596.31500000
12.17000 600.09000000
12.20000 602.11100000
12.23000 600.74700000
12.26000 597.83000000
12.29000 595.05100000
12.32000 588.67700000
12.35000 580.91300000
12.38000 579.01200000
12.41000 578.18500000
12.44000 583.29400000
12.47000 589.96000000
12.50000 589.21200000
12.53000 588.20900000
12.56000 580.95800000
12.59000 575.09800000
12.62000 577.39300000
12.65000 577.67200000
12.68000 581.69200000
12.71000 584.57500000
12.74000 583.14000000
12.77000 583.29700000
12.80000 583.50300000
12.83000 579.92900000
12.86000 577.69500000
12.89000 575.68200000
12.92000 575.57200000
12.95000 577.37600000
12.98000 578.85800000
13.01000 580.24100000
13.04000 579.56020000
13.07000 579.35300000
13.10000 577.66700000
13.13000 576.59900000
13.16000 576.30400000
13.19000 576.94100000
13.22000 578.21800000
13.25000 578.22300000
13.28000 579.72800000
13.31000 579.53400000
13.34000 582.28600000
13.37000 583.15600000
13.40000 584.41100000
13.43000 581.75000000
13.46000 576.50800000
13.49000 575.45900000
13.52000 579.22700000
13.55000 583.66100000
13.58000 586.48300000
13.61000 583.48400000
13.64000 579.21100000
13.67000 576.80900000
13.70000 576.44600000
13.73000 575.56800000
13.76000 575.86600000
13.79000 580.14000000
13.82000 584.66600000
13.85000 585.22400000
13.88000 584.03500000
13.91000 583.76300000
13.94000 582.35700000
13.97000 580.62500000
14.00000 578.04200000
14.03000 576.59200000
14.06000 579.44900000
14.09000 582.06200000
14.12000 584.28400000
14.15000 590.62500000
14.18000 596.43700000
14.21000 599.63600000
14.24000 600.57300000
14.27000 602.76900000
14.30000 605.18500000
14.33000 604.20000000
14.36000 604.38000000
14.39000 604.43600000
14.42000 604.77600000
14.45000 601.52900000
14.48000 599.34700000
14.51000 598.62900000
14.54000 597.92500000
14.57000 601.14900000
14.60000 600.84000000
14.63000 597.20100000
14.66000 590.87500000
14.69000 587.22400000
14.72000 586.80500000
14.75000 583.94800000
14.78000 581.49000000
14.81000 585.59200000
14.84000 586.34000000
14.87000 582.79000000
14.90000 583.05800000
14.93000 584.62800000
14.96000 584.25400000
14.99000 584.24700000
15.02000 587.80300000
15.05000 587.34700000
15.08000 587.19400000
15.11000 588.73400000
15.14000 589.39700000
15.17000 590.54200000
15.20000 591.44700000
15.23000 593.01900000
15.26000 593.46100000
15.29000 594.16800000
15.32000 594.69300000
15.35000 595.32370000
15.38000 596.65800000
15.41000 597.18600000
15.44000 597.93600000
15.47000 600.11400000
15.50000 600.62600000
15.53000 600.73800000
15.56000 602.66000000
15.59000 602.91600000
15.62000 604.49870000
15.65000 604.40000000
15.68000 607.99400000
15.71000 609.20800000
15.74000 611.87500000
15.77000 608.89200000
15.80000 602.71300000
15.83000 600.35400000
15.86000 599.43300000
15.89000 598.20800000
15.92000 597.36900000
15.95000 597.36800000
15.98000 598.88100000
16.01000 597.24000000
16.04000 599.26000000
16.07000 606.31000000
16.10000 612.25200000
16.13000 625.05000000
16.16000 643.18400000
16.19000 666.59300000
16.22000 708.43500000
16.25000 769.44200000
16.28000 851.75400000
16.31000 955.60200000
16.34000 1081.72000000
16.37000 1232.24000000
16.40000 1384.54000000
16.43000 1538.54000000
16.46000 1653.97000000
16.49000 1739.33000000
16.52000 1776.42000000
16.55000 1766.62000000
16.58000 1707.75000000
16.61000 1611.64000000
16.64000 1485.29000000
16.67000 1348.76000000
16.70000 1198.85000000
16.73000 1075.00000000
16.76000 957.67400000
16.79000 867.23900000
16.82000 798.52400000
16.85000 742.55800000
16.88000 702.32400000
16.91000 673.67200000
16.94000 656.86600000
16.97000 641.41300000
17.00000 631.63500000
17.03000 627.28100000
17.06000 624.41300000
17.09000 621.58000000
17.12000 622.33300000
17.15000 624.57300000
17.18000 625.02400000
17.21000 625.33300000
17.24000 626.24000000
17.27000 634.13800000
17.30000 649.63700000
17.33000 671.07600000
17.36000 699.97800000
17.39000 741.80000000
17.42000 797.80000000
17.45000 879.37500000
17.48000 978.08700000
17.51000 1107.50000000
17.54000 1247.65000000
17.57000 1413.90000000
17.60000 1573.18000000
17.63000 1712.37000000
17.66000 1834.05000000
17.69000 1903.36000000
17.72000 1926.54000000
17.75000 1897.05000000
17.78000 1817.06000000
17.81000 1711.09000000
17.84000 1560.31000000
17.87000 1392.56000000
17.90000 1237.74000000
17.93000 1085.00000000
17.96000 965.35100000
17.99000 863.45000000
18.02000 791.21400000
18.05000 743.55400000
18.08000 706.37700000
18.11000 675.27800000
18.14000 658.44100000
18.17000 647.76800000
18.20000 642.20300000
18.23000 639.33400000
18.26000 634.33400000
18.29000 630.06800000
18.32000 628.33300000
18.35000 626.95900000
18.38000 626.47600000
18.41000 623.76400000
18.44000 617.39900000
18.47000 611.25000000
18.50000 613.14900000
18.53000 618.50600000
18.56000 622.47800000
18.59000 626.93200000
18.62000 627.60100000
18.65000 621.99900000
18.68000 619.37500000
18.71000 616.01400000
18.74000 614.73070000
18.77000 612.78400000
18.80000 615.56100000
18.83000 616.27400000
18.86000 620.24500000
18.89000 621.83600000
18.92000 623.92000000
18.95000 625.38800000
18.98000 629.18000000
19.01000 638.11200000
19.04000 643.91900000
19.07000 648.45900000
19.10000 664.52200000
19.13000 695.57500000
19.16000 745.34600000
19.19000 828.95200000
19.22000 960.74700000
19.25000 1144.73000000
19.28000 1408.75000000
19.31000 1742.79000000
19.34000 2158.65000000
19.37000 2626.61000000
19.40000 3136.45000000
19.43000 3672.54000000
19.46000 4160.74000000
19.49000 4614.88000000
19.52000 4891.84000000
19.55000 5083.06000000
19.58000 5098.65000000
19.61000 4946.09000000
19.64000 4641.87000000
19.67000 4220.01000000
19.70000 3698.99000000
19.73000 3195.14000000
19.76000 2647.56000000
19.79000 2197.02000000
19.82000 1778.96000000
19.85000 1455.17000000
19.88000 1203.33000000
19.91000 1020.01000000
19.94000 903.18800000
19.97000 817.11600000
20.00000 764.63400000
20.03000 731.89000000
20.06000 714.84700000
20.09000 699.40200000
20.12000 686.33300000
20.15000 675.02030000
20.18000 663.63200000
20.21000 658.02000000
20.24000 653.46500000
20.27000 649.12900000
20.30000 645.40800000
20.33000 642.32400000
20.36000 637.69300000
20.39000 633.35000000
20.42000 630.91100000
20.45000 631.00400000
20.48000 631.60100000
20.51000 631.47900000
20.54000 630.96100000
20.57000 625.52800000
20.60000 620.61700000
20.63000 620.74800000
20.66000 619.66400000
20.69000 619.61700000
20.72000 618.56200000
20.75000 616.17000000
20.78000 614.59700000
20.81000 614.02300000
20.84000 609.79500000
20.87000 606.01900000
20.90000 605.81400000
20.93000 604.79000000
20.96000 601.43600000
20.99000 597.21300000
21.02000 593.00900000
21.05000 587.14200000
21.08000 584.32500000
21.11000 584.35400000
21.14000 582.11600000
21.17000 583.10600000
21.20000 582.51200000
21.23000 581.11600000
21.26000 582.66500000
21.29000 583.81800000
21.32000 582.59400000
21.35000 584.64300000
21.38000 586.82400000
21.41000 585.85200000
21.44000 582.70300000
21.47000 583.12800000
21.50000 583.47400000
21.53000 584.87000000
21.56000 584.12700000
21.59000 581.33300000
21.62000 580.96300000
21.65000 578.90300000
21.68000 576.81100000
21.71000 575.41900000
21.74000 573.08300000
21.77000 572.82000000
21.80000 573.04900000
21.83000 574.16200000
21.86000 575.45100000
21.89000 574.15500000
21.92000 570.11900000
21.95000 568.58500000
21.98000 573.21200000
22.01000 577.53100000
22.04000 578.60100000
22.07000 574.96000000
22.10000 569.43800000
22.13000 567.39500000
22.16000 567.58500000
22.19000 566.67000000
22.22000 564.91300000
22.25000 563.25100000
22.28000 564.21700000
22.31000 562.71600000
22.34000 566.23800000
22.37000 571.63600000
22.40000 574.92600000
22.43000 572.92100000
22.46000 569.92200000
22.49000 570.68300000
22.52000 571.03200000
22.55000 569.28900000
22.58000 566.07600000
22.61000 565.55800000
22.64000 567.17900000
22.67000 569.10200000
22.70000 573.77600000
22.73000 577.55900000
22.76000 575.15800000
22.79000 575.72600000
22.82000 574.95300000
22.85000 571.93800000
22.88000 568.38600000
22.91000 565.64700000
22.94000 566.18200000
22.97000 568.47400000
23.00000 571.64900000
23.03000 570.83400000
23.06000 569.10000000
23.09000 569.47000000
23.12000 569.41900000
23.15000 568.34500000
23.18000 569.53700000
23.21000 572.05800000
23.24000 575.39600000
23.27000 577.85300000
23.30000 576.72300000
23.33000 575.90300000
23.36000 574.43900000
23.39000 575.45000000
23.42000 575.06000000
23.45000 571.75600000
23.48000 570.34100000
23.51000 571.08600000
23.54000 570.83800000
23.57000 571.73000000
23.60000 572.71620000
23.63000 573.44340000
23.66000 575.17600000
23.69000 575.69200000
23.72000 576.84600000
23.75000 577.98500000
23.78000 581.36100000
23.81000 586.18600000
23.84000 590.10300000
23.87000 594.59200000
23.90000 599.60100000
23.93000 612.04900000
23.96000 637.53700000
23.99000 666.70000000
24.02000 705.53800000
24.05000 759.29800000
24.08000 828.29300000
24.11000 901.05300000
24.14000 979.91700000
24.17000 1065.15000000
24.20000 1135.53000000
24.23000 1195.04000000
24.26000 1232.65000000
24.29000 1246.38000000
24.32000 1242.94000000
24.35000 1216.91000000
24.38000 1169.65000000
24.41000 1106.92000000
24.44000 1037.56000000
24.47000 963.10600000
24.50000 889.90000000
24.53000 824.18200000
24.56000 765.42400000
24.59000 714.10000000
24.62000 673.02600000
24.65000 645.65200000
24.68000 624.73400000
24.71000 606.80400000
24.74000 596.50200000
24.77000 590.53900000
24.80000 590.01000000
24.83000 591.91600000
24.86000 590.96500000
24.89000 587.57800000
24.92000 585.15200000
24.95000 581.84600000
24.98000 580.12700000
25.01000 580.56200000
25.04000 581.99500000
25.07000 582.37800000
25.10000 583.24700000
25.13000 583.56870000
25.16000 584.04490000
25.19000 584.03000000
25.22000 584.74000000
25.25000 585.39000000
25.28000 585.59400000
25.31000 583.83800000
25.34000 584.03250000
25.37000 582.53500000
25.40000 582.66600000
25.43000 582.24200000
25.46000 581.56800000
25.49000 582.49400000
25.52000 582.23000000
25.55000 581.56700000
25.58000 584.98800000
25.61000 587.45200000
25.64000 585.54400000
25.67000 582.16400000
25.70000 576.83500000
25.73000 575.90300000
25.76000 574.59100000
25.79000 575.10600000
25.82000 576.10600000
25.85000 574.29000000
25.88000 572.64800000
25.91000 574.62000000
25.94000 576.43200000
25.97000 579.21400000
26.00000 580.18800000
26.03000 579.45800000
26.06000 577.18000000
26.09000 573.95400000
26.12000 575.41900000
26.15000 575.47300000
26.18000 572.19000000
26.21000 572.75100000
26.24000 575.85600000
26.27000 574.97100000
26.30000 579.23600000
26.33000 579.58900000
26.36000 577.51700000
26.39000 576.99000000
26.42000 576.63600000
26.45000 575.46300000
26.48000 573.71200000
26.51000 571.32400000
26.54000 575.13900000
26.57000 577.97900000
26.60000 575.28000000
26.63000 572.00100000
26.66000 572.01100000
26.69000 572.11200000
26.72000 572.30500000
26.75000 572.98100000
26.78000 574.12200000
26.81000 573.98700000
26.84000 572.46900000
26.87000 573.32500000
26.90000 578.64000000
26.93000 583.55100000
26.96000 585.08700000
26.99000 584.91600000
27.02000 583.74700000
27.05000 583.57600000
27.08000 581.85700000
27.11000 580.78140000
27.14000 577.03700000
27.17000 577.72300000
27.20000 576.07000000
27.23000 574.09700000
27.26000 577.63400000
27.29000 582.58600000
27.32000 586.69900000
27.35000 588.45300000
27.38000 589.59110000
27.41000 585.13300000
27.44000 588.08800000
27.47000 587.00800000
27.50000 584.65400000
27.53000 587.91400000
27.56000 594.34300000
27.59000 594.90000000
27.62000 595.81200000
27.65000 597.88700000
27.68000 593.43900000
27.71000 589.47700000
27.74000 585.99100000
27.77000 581.99800000
27.80000 580.29200000
27.83000 579.46300000
27.86000 580.11400000
27.89000 582.21100000
27.92000 581.58500000
27.95000 582.88700000
27.98000 581.20900000
28.01000 581.45100000
28.04000 586.20700000
28.07000 591.68200000
28.10000 593.02800000
28.13000 590.34200000
28.16000 584.85500000
28.19000 584.84200000
28.22000 584.79500000
28.25000 584.96500000
28.28000 585.10330000
28.31000 582.39300000
28.34000 585.43000000
28.37000 585.90000000
28.40000 585.79400000
28.43000 588.86300000
28.46000 585.73600000
28.49000 579.43800000
28.52000 578.12200000
28.55000 580.93800000
28.58000 581.99000000
28.61000 581.30000000
28.64000 585.05800000
28.67000 589.40000000
28.70000 591.26400000
28.73000 590.55100000
28.76000 588.54700000
28.79000 589.54200000
28.82000 588.78300000
28.85000 588.52500000
28.88000 585.53600000
28.91000 587.84500000
28.94000 588.08800000
28.97000 586.60000000
29.00000 587.97300000
29.03000 586.75200000
29.06000 588.77100000
29.09000 590.81800000
29.12000 590.74200000
29.15000 592.86300000
29.18000 592.60910000
29.21000 594.00500000
29.24000 591.84800000
29.27000 590.69000000
29.30000 589.32800000
29.33000 591.06600000
29.36000 592.45700000
29.39000 589.12900000
29.42000 589.48600000
29.45000 594.45700000
29.48000 596.62600000
29.51000 599.81800000
29.54000 602.26600000
29.57000 599.86600000
29.60000 596.96500000
29.63000 599.65700000
29.66000 599.24400000
29.69000 599.10700000
29.72000 600.49100000
29.75000 602.42400000
29.78000 604.81500000
29.81000 606.38900000
29.84000 605.85400000
29.87000 602.26300000
29.90000 599.87200000
29.93000 599.43000000
29.96000 600.66900000
29.99000 604.87600000
30.02000 607.93400000
30.05000 610.73500000
30.08000 614.95200000
30.11000 613.79200000
30.14000 613.46400000
30.17000 621.37100000
30.20000 627.26800000
30.23000 629.88600000
30.26000 636.50000000
30.29000 647.37600000
30.32000 666.18100000
30.35000 691.15000000
30.38000 731.33200000
30.41000 784.90600000
30.44000 844.54000000
30.47000 923.11200000
30.50000 1008.85000000
30.53000 1102.71000000
30.56000 1198.40000000
30.59000 1309.22000000
30.62000 1414.89000000
30.65000 1513.40000000
30.68000 1625.85000000
30.71000 1709.97000000
30.74000 1767.32000000
30.77000 1809.19000000
30.80000 1805.91000000
30.83000 1794.01000000
30.86000 1764.87000000
30.89000 1718.54000000
30.92000 1647.11000000
30.95000 1549.14000000
30.98000 1452.49000000
31.01000 1349.62000000
31.04000 1236.22000000
31.07000 1145.00000000
31.10000 1047.88000000
31.13000 970.08200000
31.16000 886.65300000
31.19000 822.34400000
31.22000 772.93900000
31.25000 731.31400000
31.28000 701.68200000
31.31000 674.83400000
31.34000 658.12200000
31.37000 648.24900000
31.40000 639.97700000
31.43000 633.83000000
31.46000 632.20600000
31.49000 633.48200000
31.52000 632.54100000
31.55000 630.03000000
31.58000 627.12000000
31.61000 624.49500000
31.64000 619.39900000
31.67000 615.06200000
31.70000 613.70700000
31.73000 612.70500000
31.76000 612.61500000
31.79000 613.24300000
31.82000 613.56500000
31.85000 615.33000000
31.88000 618.88100000
31.91000 617.81800000
31.94000 618.28800000
31.97000 618.55100000
32.00000 615.74400000
32.03000 613.45500000
32.06000 614.10400000
32.09000 614.46700000
32.12000 613.39500000
32.15000 611.08400000
32.18000 610.48900000
32.21000 608.37800000
32.24000 608.25300000
32.27000 612.47400000
32.30000 617.62600000
32.33000 618.92300000
32.36000 620.31700000
32.39000 617.26400000
32.42000 611.47000000
32.45000 609.45000000
32.48000 607.64000000
32.51000 605.84400000
32.54000 607.00900000
32.57000 610.11400000
32.60000 608.83300000
32.63000 610.49100000
32.66000 612.31900000
32.69000 608.69000000
32.72000 606.72800000
32.75000 611.66900000
32.78000 612.93100000
32.81000 611.43900000
32.84000 609.66100000
32.87000 608.67300000
32.90000 605.74000000
32.93000 604.34000000
32.96000 605.20300000
32.99000 606.68400000
33.02000 611.03400000
33.05000 613.25600000
33.08000 620.38650000
33.11000 623.30300000
33.14000 636.98400000
33.17000 649.80700000
33.20000 661.31400000
33.23000 669.43900000
33.26000 677.07600000
33.29000 681.82430000
33.32000 679.52900000
33.35000 684.56400000
33.38000 683.67100000
33.41000 677.67300000
33.44000 675.71500000
33.47000 668.96400000
33.50000 659.97300000
33.53000 655.71800000
33.56000 654.91700000
33.59000 655.26500000
33.62000 646.25700000
33.65000 637.04300000
33.68000 630.04900000
33.71000 624.49400000
33.74000 619.81600000
33.77000 616.17700000
33.80000 614.48700000
33.83000 610.75600000
33.86000 609.52300000
33.89000 607.42800000
33.92000 604.22600000
33.95000 601.22700000
33.98000 601.28500000
34.01000 600.58800000
34.04000 601.60000000
34.07000 603.92700000
34.10000 601.38000000
34.13000 600.01300000
34.16000 602.61900000
34.19000 603.89300000
34.22000 605.16700000
34.25000 604.47900000
34.28000 603.07000000
34.31000 603.25000000
34.34000 603.94500000
34.37000 601.63900000
34.40000 600.85500000
34.43000 602.41500000
34.46000 601.84100000
34.49000 605.33900000
34.52000 610.46600000
34.55000 613.31800000
34.58000 616.20000000
34.61000 613.22000000
34.64000 609.64400000
34.67000 611.59000000
34.70000 615.00600000
34.73000 621.45600000
34.76000 630.26000000
34.79000 637.51000000
34.82000 650.62500000
34.85000 670.77700000
34.88000 694.73600000
34.91000 731.80300000
34.94000 777.90600000
34.97000 836.59000000
35.00000 904.17300000
35.03000 972.09100000
35.06000 1039.03000000
35.09000 1100.46000000
35.12000 1149.40000000
35.15000 1184.13000000
35.18000 1200.02000000
35.21000 1200.54000000
35.24000 1189.17000000
35.27000 1173.35000000
35.30000 1144.52000000
35.33000 1104.99000000
35.36000 1067.16000000
35.39000 1018.04000000
35.42000 969.25300000
35.45000 918.49700000
35.48000 869.78800000
35.51000 827.85300000
35.54000 787.42800000
35.57000 766.16000000
35.60000 751.56600000
35.63000 739.71000000
35.66000 743.99400000
35.69000 748.41000000
35.72000 748.45200000
35.75000 748.52990000
35.78000 749.39500000
35.81000 742.23800000
35.84000 735.94300000
35.87000 727.72400000
35.90000 725.88100000
35.93000 721.94800000
35.96000 711.53900000
35.99000 705.16400000
36.02000 695.18500000
36.05000 686.34700000
36.08000 672.87800000
36.11000 663.31500000
36.14000 654.88900000
36.17000 647.04200000
36.20000 643.27700000
36.23000 641.62100000
36.26000 639.10100000
36.29000 639.22000000
36.32000 640.69800000
36.35000 639.89400000
36.38000 645.26300000
36.41000 656.21600000
36.44000 666.07900000
36.47000 686.85400000
36.50000 717.31500000
36.53000 751.27300000
36.56000 799.08100000
36.59000 853.30800000
36.62000 917.78800000
36.65000 980.67700000
36.68000 1035.92000000
36.71000 1081.26000000
36.74000 1115.38000000
36.77000 1130.45000000
36.80000 1128.94000000
36.83000 1122.20000000
36.86000 1105.73000000
36.89000 1082.37000000
36.92000 1058.01000000
36.95000 1026.42000000
36.98000 985.02500000
37.01000 946.28800000
37.04000 902.86300000
37.07000 853.96500000
37.10000 806.60500000
37.13000 760.52500000
37.16000 722.86000000
37.19000 691.03100000
37.22000 669.60900000
37.25000 654.35200000
37.28000 643.97000000
37.31000 631.82000000
37.34000 626.66100000
37.37000 623.27600000
37.40000 623.49700000
37.43000 624.91800000
37.46000 625.51900000
37.49000 626.73900000
37.52000 625.49900000
37.55000 624.20700000
37.58000 621.10800000
37.61000 618.97700000
37.64000 623.21400000
37.67000 625.12780000
37.70000 632.35800000
37.73000 636.14800000
37.76000 644.88700000
37.79000 652.43800000
37.82000 662.13400000
37.85000 670.14900000
37.88000 673.13800000
37.91000 672.04100000
37.94000 669.01700000
37.97000 669.77600000
38.00000 672.91100000
38.03000 675.31400000
38.06000 672.77500000
38.09000 667.39900000
38.12000 662.01100000
38.15000 655.31100000
38.18000 647.43000000
38.21000 641.84000000
38.24000 638.45700000
38.27000 635.24900000
38.30000 632.30800000
38.33000 626.75100000
38.36000 615.83700000
38.39000 604.47100000
38.42000 596.86100000
38.45000 597.84700000
38.48000 600.81700000
38.51000 603.35600000
38.54000 606.44500000
38.57000 605.45200000
38.60000 603.37900000
38.63000 605.20300000
38.66000 603.35600000
38.69000 602.69300000
38.72000 604.68100000
38.75000 603.11800000
38.78000 603.03100000
38.81000 604.03600000
38.84000 605.67200000
38.87000 605.76500000
38.90000 604.35900000
38.93000 606.38700000
38.96000 604.53900000
38.99000 599.53900000
39.02000 594.66400000
39.05000 592.29000000
39.08000 594.85200000
39.11000 599.91300000
39.14000 599.66200000
39.17000 599.03200000
39.20000 600.25800000
39.23000 603.16100000
39.26000 605.86900000
39.29000 607.82700000
39.32000 613.55900000
39.35000 622.32800000
39.38000 630.66700000
39.41000 642.14500000
39.44000 656.13200000
39.47000 668.70000000
39.50000 684.06700000
39.53000 696.64500000
39.56000 700.67500000
39.59000 707.39700000
39.62000 711.17500000
39.65000 709.03900000
39.68000 703.86100000
39.71000 697.61400000
39.74000 690.13500000
39.77000 682.57600000
39.80000 676.95100000
39.83000 672.38400000
39.86000 671.64100000
39.89000 666.04500000
39.92000 656.07100000
39.95000 644.81500000
39.98000 635.51400000
40.01000 628.58800000
40.04000 628.23400000
40.07000 622.41200000
40.10000 616.10700000
40.13000 608.11200000
40.16000 603.24800000
40.19000 599.93100000
40.22000 598.71600000
40.25000 597.65700000
40.28000 602.18600000
40.31000 602.47600000
40.34000 602.89800000
40.37000 605.00100000
40.40000 601.89500000
40.43000 601.58500000
40.46000 599.24600000
40.49000 598.33900000
40.52000 600.77000000
40.55000 601.20800000
40.58000 601.80300000
40.61000 602.27800000
40.64000 602.44600000
40.67000 600.51900000
40.70000 601.00840000
40.73000 599.85640000
40.76000 599.81100000
40.79000 597.86600000
40.82000 596.05500000
40.85000 594.39100000
40.88000 591.67300000
40.91000 591.14300000
40.94000 594.97400000
40.97000 599.80000000
41.00000 600.25200000
41.03000 601.04600000
41.06000 601.56300000
41.09000 601.17710000
41.12000 600.78600000
41.15000 599.64300000
41.18000 598.46900000
41.21000 596.60300000
41.24000 599.51200000
41.27000 597.73790000
41.30000 602.14400000
41.33000 598.18200000
41.36000 600.35600000
41.39000 602.69800000
41.42000 601.77500000
41.45000 593.61500000
41.48000 588.22600000
41.51000 586.35400000
41.54000 589.87200000
41.57000 595.01400000
41.60000 594.14800000
41.63000 592.96300000
41.66000 590.63600000
41.69000 589.75000000
41.72000 589.87100000
41.75000 591.73000000
41.78000 591.03240000
41.81000 591.29910000
41.84000 591.48300000
41.87000 590.50700000
41.90000 590.83800000
41.93000 590.08830000
41.96000 590.40800000
41.99000 591.29200000
42.02000 592.38000000
42.05000 594.58100000
42.08000 596.94100000
42.11000 599.56500000
42.14000 601.42000000
42.17000 598.03000000
42.20000 594.05100000
42.23000 594.75600000
42.26000 596.43600000
42.29000 597.44100000
42.32000 599.61200000
42.35000 601.73700000
42.38000 597.08500000
42.41000 591.80700000
42.44000 591.89300000
42.47000 593.09500000
42.50000 592.72200000
42.53000 591.93300000
42.56000 588.79300000
42.59000 587.28600000
42.62000 590.90300000
42.65000 595.63600000
42.68000 596.49300000
42.71000 597.23000000
42.74000 600.55600000
42.77000 603.38400000
42.80000 603.87400000
42.83000 606.13300000
42.86000 602.20100000
42.89000 596.46000000
42.92000 595.50600000
42.95000 594.32000000
42.98000 598.47000000
43.01000 602.16200000
43.04000 601.63000000
43.07000 602.57700000
43.10000 604.94200000
43.13000 603.02300000
43.16000 603.34100000
43.19000 605.33900000
43.22000 604.50600000
43.25000 601.75200000
43.28000 601.21700000
43.31000 601.78100000
43.34000 601.72600000
43.37000 600.97330000
43.40000 600.74600000
43.43000 599.86600000
43.46000 599.64500000
43.49000 600.11600000
43.52000 603.46800000
43.55000 605.03280000
43.58000 608.20800000
43.61000 611.13700000
43.64000 616.39200000
43.67000 619.85700000
43.70000 624.72400000
43.73000 631.03700000
43.76000 638.80800000
43.79000 655.32400000
43.82000 677.93000000
43.85000 697.21000000
43.88000 717.46200000
43.91000 730.64900000
43.94000 737.94900000
43.97000 741.94000000
44.00000 745.50900000
44.03000 746.47000000
44.06000 742.73900000
44.09000 741.10900000
44.12000 734.29660000
44.15000 732.50000000
44.18000 718.89100000
44.21000 710.09600000
44.24000 703.54900000
44.27000 700.81100000
44.30000 697.02300000
44.33000 688.70900000
44.36000 681.20100000
44.39000 673.58200000
44.42000 657.63700000
44.45000 645.37200000
44.48000 633.34600000
44.51000 623.22000000
44.54000 618.41700000
44.57000 617.67800000
44.60000 616.27800000
44.63000 614.90300000
44.66000 615.06400000
44.69000 614.48400000
44.72000 612.99400000
44.75000 610.92900000
44.78000 608.92300000
44.81000 609.48900000
44.84000 612.65900000
44.87000 614.91200000
44.90000 617.52800000
44.93000 615.56300000
44.96000 609.97100000
44.99000 608.36400000
45.02000 609.01000000
45.05000 609.06600000
45.08000 609.88000000
45.11000 609.51100000
45.14000 608.67800000
45.17000 605.04000000
45.20000 606.54500000
45.23000 608.35100000
45.26000 606.43900000
45.29000 601.85900000
45.32000 597.88100000
45.35000 598.11200000
45.38000 599.12000000
45.41000 602.79400000
45.44000 606.46400000
45.47000 606.74500000
45.50000 610.83720000
45.53000 611.49500000
45.56000 617.91300000
45.59000 621.08500000
45.62000 627.41900000
45.65000 638.63900000
45.68000 648.44400000
45.71000 656.00100000
45.74000 666.71900000
45.77000 681.97100000
45.80000 700.88500000
45.83000 717.02500000
45.86000 734.65600000
45.89000 750.60700000
45.92000 758.03800000
45.95000 764.55000000
45.98000 769.82800000
46.01000 770.41600000
46.04000 770.72800000
46.07000 768.39700000
46.10000 757.53500000
46.13000 747.58300000
46.16000 742.07800000
46.19000 731.08400000
46.22000 722.60400000
46.25000 715.42100000
46.28000 706.39700000
46.31000 697.00500000
46.34000 687.86800000
46.37000 673.60900000
46.40000 662.89000000
46.43000 651.26600000
46.46000 647.30500000
46.49000 641.08800000
46.52000 632.05600000
46.55000 626.49500000
46.58000 623.03500000
46.61000 619.54100000
46.64000 620.18400000
46.67000 619.77400000
46.70000 617.93100000
46.73000 616.77300000
46.76000 615.75290000
46.79000 614.26000000
46.82000 613.48000000
46.85000 613.50600000
46.88000 612.48200000
46.91000 609.60400000
46.94000 605.22300000
46.97000 605.06100000
47.00000 609.50200000
47.03000 613.66200000
47.06000 614.56000000
47.09000 612.99300000
47.12000 614.81800000
47.15000 615.98900000
47.18000 611.53300000
47.21000 612.94100000
47.24000 616.37800000
47.27000 614.88300000
47.30000 611.73600000
47.33000 610.65300000
47.36000 609.32300000
47.39000 607.98130000
47.42000 608.26300000
47.45000 606.73800000
47.48000 603.70400000
47.51000 603.55900000
47.54000 606.47200000
47.57000 604.84200000
47.60000 600.88700000
47.63000 607.53100000
47.66000 616.00500000
47.69000 626.91200000
47.72000 637.92000000
47.75000 644.18700000
47.78000 648.69000000
47.81000 654.41900000
47.84000 658.78800000
47.87000 662.31400000
47.90000 662.40200000
47.93000 660.36400000
47.96000 654.91400000
47.99000 651.31900000
48.02000 645.97300000
48.05000 644.58200000
48.08000 647.13100000
48.11000 645.92000000
48.14000 647.10400000
48.17000 648.71300000
48.20000 652.17700000
48.23000 653.27700000
48.26000 648.04100000
48.29000 644.44100000
48.32000 645.97800000
48.35000 644.34600000
48.38000 647.10900000
48.41000 654.13700000
48.44000 665.40200000
48.47000 681.75200000
48.50000 708.75600000
48.53000 735.36100000
48.56000 758.81700000
48.59000 784.76500000
48.62000 803.54200000
48.65000 822.03200000
48.68000 829.70200000
48.71000 827.99700000
48.74000 821.97800000
48.77000 804.64100000
48.80000 795.27200000
48.83000 793.44800000
48.86000 784.57100000
48.89000 777.19400000
48.92000 771.51800000
48.95000 767.65600000
48.98000 761.39300000
49.01000 752.41700000
49.04000 739.50800000
49.07000 727.37100000
49.10000 713.01390000
49.13000 692.35600000
49.16000 681.08800000
49.19000 664.12100000
49.22000 646.33700000
49.25000 633.61900000
49.28000 630.66100000
49.31000 624.32300000
49.34000 619.80800000
49.37000 624.81200000
49.40000 626.06600000
49.43000 627.51300000
49.46000 629.81500000
49.49000 633.13100000
49.52000 633.06300000
49.55000 635.73700000
49.58000 641.18900000
49.61000 640.31400000
49.64000 640.47200000
49.67000 642.77700000
49.70000 637.94700000
49.73000 637.60800000
49.76000 634.46100000
49.79000 632.03600000
49.82000 632.62100000
49.85000 628.01500000
49.88000 626.96500000
49.91000 626.99000000
49.94000 626.52300000
49.97000 626.74300000
50.00000 620.92100000
50.03000 617.00500000
50.06000 617.63700000
50.09000 616.87000000
50.12000 616.14600000
50.15000 617.19700000
50.18000 617.38400000
50.21000 616.21550000
50.24000 615.45550000
50.27000 614.02400000
50.30000 612.29700000
50.33000 611.50400000
50.36000 610.38300000
50.39000 607.39700000
50.42000 608.96000000
50.45000 612.67400000
50.48000 616.93000000
50.51000 614.86300000
50.54000 614.49000000
50.57000 616.59600000
50.60000 618.98600000
50.63000 617.25100000
50.66000 618.35700000
50.69000 622.66500000
50.72000 626.21400000
50.75000 636.27700000
50.78000 642.91100000
50.81000 645.05800000
50.84000 648.77100000
50.87000 658.68200000
50.90000 666.30800000
50.93000 671.67600000
50.96000 672.66690000
50.99000 673.39080000
51.02000 668.17300000
51.05000 665.70300000
51.08000 659.93800000
51.11000 648.91000000
51.14000 650.72200000
51.17000 651.10100000
51.20000 655.71800000
51.23000 655.71700000
51.26000 652.96500000
51.29000 652.12600000
51.32000 645.62600000
51.35000 638.77000000
51.38000 631.23400000
51.41000 628.44700000
51.44000 625.76300000
51.47000 623.52500000
51.50000 618.62500000
51.53000 612.94400000
51.56000 610.90600000
51.59000 608.94200000
51.62000 609.75700000
51.65000 612.62000000
51.68000 611.52400000
51.71000 614.61900000
51.74000 618.96200000
51.77000 618.72700000
51.80000 615.87600000
51.83000 614.38100000
51.86000 607.20600000
51.89000 601.91900000
51.92000 600.98600000
51.95000 606.69000000
51.98000 608.01000000
52.01000 606.10000000
52.04000 606.36900000
52.07000 608.60000000
52.10000 610.30400000
52.13000 612.80300000
52.16000 614.28200000
52.19000 614.49200000
52.22000 613.70800000
52.25000 612.36200000
52.28000 611.94000000
52.31000 611.54200000
52.34000 612.63800000
52.37000 610.88800000
52.40000 605.22700000
52.43000 599.33500000
52.46000 600.37900000
52.49000 601.35100000
52.52000 603.55600000
52.55000 605.69600000
52.58000 606.79200000
52.61000 606.61100000
52.64000 604.03600000
52.67000 600.87600000
52.70000 602.25900000
52.73000 600.79100000
52.76000 599.28600000
52.79000 603.59600000
52.82000 606.55200000
52.85000 605.07400000
52.88000 608.22300000
52.91000 608.48400000
52.94000 606.95500000
52.97000 605.17300000
53.00000 602.73200000
53.03000 595.03900000
53.06000 595.64300000
53.09000 592.31200000
53.12000 590.86900000
53.15000 597.43400000
53.18000 603.48600000
53.21000 604.20800000
53.24000 602.75500000
53.27000 600.29400000
53.30000 599.55100000
53.33000 603.81400000
53.36000 604.14600000
53.39000 606.42800000
53.42000 606.02200000
53.45000 607.65520000
53.48000 607.63050000
53.51000 608.65000000
53.54000 607.36400000
53.57000 604.61300000
53.60000 604.18900000
53.63000 603.77000000
53.66000 603.57620000
53.69000 602.76200000
53.72000 606.91400000
53.75000 605.70000000
53.78000 611.73600000
53.81000 614.85300000
53.84000 616.21800000
53.87000 609.58600000
53.90000 603.48400000
53.93000 604.68000000
53.96000 601.59100000
53.99000 603.56100000
54.02000 604.08560000
54.05000 607.81300000
54.08000 606.53000000
54.11000 607.99100000
54.14000 608.34200000
54.17000 610.80800000
54.20000 604.92400000
54.23000 602.19400000
54.26000 610.66700000
54.29000 613.84400000
54.32000 617.66200000
54.35000 622.14600000
54.38000 628.44230000
54.41000 632.48200000
54.44000 643.24800000
54.47000 656.95200000
54.50000 666.33800000
54.53000 690.83100000
54.56000 711.29900000
54.59000 732.79800000
54.62000 743.57400000
54.65000 754.69040000
54.68000 761.10210000
54.71000 762.39600000
54.74000 759.45300000
54.77000 752.57600000
54.80000 750.06570000
54.83000 744.22820000
54.86000 736.73400000
54.89000 731.34700000
54.92000 718.92600000
54.95000 707.44000000
54.98000 701.09100000
55.01000 692.18000000
55.04000 689.06300000
55.07000 681.85640000
55.10000 682.68200000
55.13000 669.91700000
55.16000 667.42300000
55.19000 660.57100000
55.22000 648.84000000
55.25000 642.14400000
55.28000 637.05000000
55.31000 632.23100000
55.34000 620.27700000
55.37000 613.18400000
55.40000 607.12400000
55.43000 602.99600000
55.46000 599.32700000
55.49000 602.03800000
55.52000 603.38300000
55.55000 602.12400000
55.58000 603.73000000
55.61000 606.62800000
55.64000 606.26400000
55.67000 598.85100000
55.70000 599.17300000
55.73000 602.60200000
55.76000 603.09600000
55.79000 607.62000000
55.82000 609.98400000
55.85000 606.78100000
55.88000 608.04100000
55.91000 611.50900000
55.94000 610.20100000
55.97000 614.48500000
56.00000 613.45800000
56.03000 614.57600000
56.06000 613.77100000
56.09000 615.75900000
56.12000 618.50000000
56.15000 612.70500000
56.18000 612.47400000
56.21000 618.28400000
56.24000 620.39300000
56.27000 617.06200000
56.30000 625.03100000
56.33000 625.77400000
56.36000 625.22100000
56.39000 620.89200000
56.42000 614.18500000
56.45000 613.93300000
56.48000 612.98400000
56.51000 606.48700000
56.54000 605.46000000
56.57000 602.20100000
56.60000 599.01400000
56.63000 597.87400000
56.66000 597.25000000
56.69000 595.53940000
56.72000 595.61880000
56.75000 594.07000000
56.78000 596.29900000
56.81000 596.57700000
56.84000 598.66500000
56.87000 601.17600000
56.90000 601.01700000
56.93000 597.37800000
56.96000 592.34100000
56.99000 590.78200000
57.02000 591.45100000
57.05000 594.79900000
57.08000 597.25600000
57.11000 599.96600000
57.14000 601.42900000
57.17000 594.16300000
57.20000 594.79200000
57.23000 595.14700000
57.26000 587.57900000
57.29000 589.66500000
57.32000 594.18300000
57.35000 592.14000000
57.38000 596.42600000
57.41000 601.92000000
57.44000 609.27300000
57.47000 617.34400000
57.50000 625.01850000
57.53000 628.32000000
57.56000 640.93400000
57.59000 649.84400000
57.62000 655.07400000
57.65000 656.47900000
57.68000 647.59500000
57.71000 639.18700000
57.74000 634.30800000
57.77000 629.58700000
57.80000 626.77400000
57.83000 628.03100000
57.86000 627.13900000
57.89000 630.28700000
57.92000 635.32000000
57.95000 634.79500000
57.98000 633.98300000
58.01000 632.27300000
58.04000 628.71780000
58.07000 615.97600000
58.10000 617.91700000
58.13000 609.42900000
58.16000 599.09400000
58.19000 594.92700000
58.22000 592.71800000
58.25000 592.44500000
58.28000 590.46100000
58.31000 586.55600000
58.34000 589.12100000
58.37000 586.93620000
58.40000 589.65800000
58.43000 587.61400000
58.46000 588.67900000
58.49000 591.49000000
58.52000 584.33700000
58.55000 580.73900000
58.58000 582.60900000
58.61000 578.69900000
58.64000 581.18600000
58.67000 584.46400000
58.70000 582.96300000
58.73000 584.40500000
58.76000 584.07200000
58.79000 579.40000000
58.82000 583.38900000
58.85000 584.24300000
58.88000 579.91100000
58.91000 576.60100000
58.94000 581.79400000
58.97000 581.38200000
59.00000 583.36400000
59.03000 586.77800000
59.06000 585.63400000
59.09000 582.75600000
59.12000 579.98200000
59.15000 580.86300000
59.18000 583.52600000
59.21000 585.03400000
59.24000 583.03600000
59.27000 579.83400000
59.30000 580.24700000
59.33000 579.50000000
59.36000 579.08300000
59.39000 580.91800000
59.42000 586.97300000
59.45000 591.94700000
59.48000 595.23700000
59.51000 597.30070000
59.54000 596.20700000
59.57000 597.60100000
59.60000 593.39300000
59.63000 590.72100000
59.66000 588.57900000
59.69000 586.63400000
59.72000 582.00600000
59.75000 581.24400000
59.78000 584.24600000
59.81000 586.93600000
59.84000 593.23300000
59.87000 602.44200000
59.90000 601.35900000
59.93000 595.07500000
59.96000 583.95600000
59.99000 580.31100000
60.02000 581.31500000
60.05000 584.69300000
60.08000 587.47500000
60.11000 587.78300000
60.14000 582.32300000
60.17000 575.84200000
60.20000 576.76400000
60.23000 580.37500000
60.26000 581.15000000
60.29000 584.33300000
60.32000 586.44900000
60.35000 587.15400000
60.38000 588.54400000
60.41000 581.89200000
60.44000 577.83000000
60.47000 583.76300000
60.50000 588.14000000
60.53000 593.56200000
60.56000 595.96600000
60.59000 596.75720000
60.62000 597.85420000
60.65000 594.50000000
60.68000 597.63400000
60.71000 594.39600000
60.74000 596.47200000
60.77000 593.19100000
60.80000 590.37700000
60.83000 590.83800000
60.86000 590.49000000
60.89000 587.93200000
60.92000 584.85700000
60.95000 588.09900000
60.98000 587.90100000
61.01000 584.05100000
61.04000 585.12800000
61.07000 581.66100000
61.10000 581.88100000
61.13000 584.11000000
61.16000 585.15100000
61.19000 585.07300000
61.22000 585.30040000
61.25000 582.39800000
61.28000 583.92000000
61.31000 579.97800000
61.34000 578.99200000
61.37000 576.56000000
61.40000 576.12370000
61.43000 575.31010000
61.46000 576.69500000
61.49000 575.80000000
61.52000 576.86800000
61.55000 579.79000000
61.58000 581.83600000
61.61000 580.64300000
61.64000 573.82600000
61.67000 570.89700000
61.70000 573.29700000
61.73000 568.11900000
61.76000 570.28700000
61.79000 572.11800000
61.82000 571.12700000
61.85000 575.68300000
61.88000 571.43100000
61.91000 567.92400000
61.94000 566.09700000
61.97000 566.92800000
62.00000 565.45200000
62.03000 565.21400000
62.06000 566.35400000
62.09000 566.81200000
62.12000 566.39310000
62.15000 566.46040000
62.18000 565.86600000
62.21000 564.99800000
62.24000 565.31900000
62.27000 563.81300000
62.30000 562.60400000
62.33000 565.01300000
62.36000 569.25700000
